Time (m),Temperature (C)
0,24.4
1,24.4
2,24.4
3,24.4
4,24.4
5,24.4
5.25,24.42
5.5,24.68
5.75,25.05
6,25.43
6.25,25.76
6.5,26.02
6.75,26.24
7,26.4
7.25,26.52
7.5,26.61
7.75,26.68
8,26.73
9,26.82
10,26.84
11,26.83
12,26.83
13,26.83
14,26.83
15,26.82
16,26.82
17,26.82
18,26.81
